Date,Open,High,Low,Close,Adj Close,Volume
2023-07-26,120.16000366210938,120.4000015258789,118.81999969482422,119.94999694824219,119.94999694824219,306900
2023-07-27,120.05999755859375,120.77999877929688,118.73999786376953,119.13999938964844,119.13999938964844,407800
2023-07-28,122.48999786376953,126.98999786376953,121.87999725341797,123.77999877929688,123.77999877929688,513000
2023-07-31,123.5199966430664,123.93000030517578,120.83000183105469,121.45999908447266,121.45999908447266,746500
2023-08-01,121.23999786376953,122.5,120.75,122.44000244140625,122.44000244140625,365300
2023-08-02,121.44000244140625,122.33000183105469,119.9800033569336,122.23999786376953,122.23999786376953,329200
2023-08-03,121.5199966430664,122.7300033569336,120.72000122070312,120.80999755859375,120.80999755859375,195900
2023-08-04,120.62000274658203,122.12999725341797,120.4800033569336,120.63999938964844,120.63999938964844,116500
2023-08-07,120.7300033569336,121.66000366210938,120.51000213623047,121.29000091552734,121.29000091552734,140300
2023-08-08,120.08000183105469,121.4000015258789,119.70999908447266,121.12000274658203,121.12000274658203,270100
2023-08-09,121.12000274658203,123.38999938964844,120.5199966430664,121.83000183105469,121.83000183105469,287500
2023-08-10,121.80000305175781,123.56999969482422,121.80000305175781,122.2300033569336,122.2300033569336,216000
2023-08-11,121.51000213623047,123.22000122070312,121.51000213623047,122.61000061035156,122.61000061035156,226500
2023-08-14,122.02999877929688,122.98999786376953,121.58000183105469,122.98999786376953,122.98999786376953,145700
2023-08-15,122.62999725341797,122.93000030517578,121.9800033569336,122.08999633789062,122.08999633789062,249000
2023-08-16,121.7300033569336,123.16000366210938,121.48999786376953,121.54000091552734,121.54000091552734,291100
2023-08-17,121.95999908447266,122.66000366210938,121.62000274658203,121.63999938964844,121.63999938964844,186600
2023-08-18,121.37999725341797,123.41999816894531,121.37999725341797,123.29000091552734,123.29000091552734,443100
2023-08-21,123.1500015258789,124.45999908447266,123.05999755859375,123.77999877929688,123.77999877929688,358800
2023-08-22,123.87000274658203,125.70999908447266,122.76000213623047,122.94999694824219,122.94999694824219,429600
2023-08-23,123.05999755859375,123.55999755859375,122.30999755859375,123.38999938964844,123.38999938964844,305000
2023-08-24,123.48999786376953,125.45999908447266,122.58999633789062,125.11000061035156,125.11000061035156,278400
2023-08-25,125.56999969482422,127.68000030517578,124.9800033569336,127.54000091552734,127.54000091552734,493000
2023-08-28,127.62999725341797,129.5800018310547,127.62999725341797,129.41000366210938,129.41000366210938,331900
2023-08-29,129.8000030517578,131.9600067138672,129.39999389648438,131.82000732421875,131.82000732421875,472400
2023-08-30,132.3699951171875,133.25999450683594,131.6999969482422,132.88999938964844,132.88999938964844,298900
2023-08-31,133.27999877929688,133.72999572753906,132.24000549316406,132.55999755859375,132.55999755859375,305800
2023-09-01,133.10000610351562,133.7899932861328,132.52000427246094,132.5500030517578,132.5500030517578,252000
2023-09-05,131.67999267578125,131.97999572753906,127.36000061035156,127.56999969482422,127.56999969482422,325300
2023-09-06,127.79000091552734,128.00999450683594,126.19999694824219,126.41000366210938,126.41000366210938,291100
2023-09-07,126.29000091552734,127.16999816894531,125.13999938964844,125.36000061035156,125.36000061035156,328600
2023-09-08,125.51000213623047,126.66999816894531,125.12000274658203,125.30999755859375,125.30999755859375,238800
2023-09-11,126.98999786376953,127.93000030517578,126.41000366210938,127.01000213623047,127.01000213623047,333500
2023-09-12,126.11000061035156,127.29000091552734,125.41999816894531,126.52999877929688,126.52999877929688,258000
2023-09-13,125.77999877929688,126.58999633789062,125.11000061035156,125.37000274658203,125.37000274658203,279300
2023-09-14,126.01000213623047,127.30000305175781,126.01000213623047,126.76000213623047,126.76000213623047,217900
2023-09-15,126.48999786376953,127.19999694824219,125.16999816894531,125.93000030517578,125.93000030517578,589200
2023-09-18,126.36000061035156,126.36000061035156,124.91999816894531,125.63999938964844,125.63999938964844,175100
2023-09-19,125.69000244140625,125.69000244140625,124.05999755859375,125.30999755859375,125.30999755859375,218600
2023-09-20,125.83999633789062,126.0999984741211,124.55999755859375,124.62999725341797,124.62999725341797,206200
2023-09-21,124.33000183105469,124.3499984741211,122.19000244140625,122.22000122070312,122.22000122070312,335700
2023-09-22,122.33000183105469,122.9000015258789,122.11000061035156,122.68000030517578,122.68000030517578,341200
2023-09-25,121.98999786376953,124.12999725341797,121.47000122070312,124.04000091552734,124.04000091552734,258800
2023-09-26,123.52999877929688,124.22000122070312,123.2300033569336,123.5999984741211,123.5999984741211,547000
2023-09-27,124.04000091552734,124.44999694824219,122.87000274658203,123.5199966430664,123.5199966430664,362400
2023-09-28,123.86000061035156,125.63999938964844,123.26000213623047,125.47000122070312,125.47000122070312,219300
2023-09-29,126.48999786376953,126.83000183105469,124.79000091552734,125.04000091552734,125.04000091552734,330900
2023-10-02,124.52999877929688,125.4800033569336,123.98999786376953,125.05000305175781,125.05000305175781,244100
2023-10-03,124.0199966430664,125.30999755859375,122.48999786376953,122.87000274658203,122.87000274658203,236300
2023-10-04,123.55000305175781,124.66000366210938,122.33000183105469,124.2300033569336,124.2300033569336,208200
2023-10-05,123.95999908447266,124.93000030517578,122.80000305175781,123.75,123.75,466700
2023-10-06,123.61000061035156,126.69000244140625,123.38999938964844,126.41000366210938,126.41000366210938,491700
2023-10-09,125.81999969482422,127.22000122070312,125.69000244140625,126.94000244140625,126.94000244140625,275700
2023-10-10,127.23999786376953,128.61000061035156,126.51000213623047,126.54000091552734,126.54000091552734,322000
2023-10-11,127.52999877929688,127.69999694824219,126.6500015258789,127.52999877929688,127.52999877929688,212900
2023-10-12,127.22000122070312,127.4000015258789,125.05999755859375,125.41999816894531,125.41999816894531,189300
2023-10-13,126.0,126.66999816894531,125.4000015258789,125.97000122070312,125.97000122070312,324900
2023-10-16,127.36000061035156,127.43000030517578,126.16999816894531,126.70999908447266,126.70999908447266,275200
2023-10-17,126.01000213623047,128.33999633789062,126.01000213623047,127.4800033569336,127.4800033569336,314400
2023-10-18,126.87000274658203,127.66999816894531,126.27999877929688,126.77999877929688,126.77999877929688,287300
2023-10-19,126.08000183105469,127.47000122070312,125.38999938964844,125.7300033569336,125.7300033569336,443900
2023-10-20,125.93000030517578,126.4800033569336,121.93000030517578,122.22000122070312,122.22000122070312,446500
2023-10-23,121.72000122070312,123.16000366210938,121.20999908447266,121.5,121.5,379000
2023-10-24,122.12999725341797,123.7699966430664,121.72000122070312,123.33999633789062,123.33999633789062,312100
2023-10-25,122.43000030517578,123.77999877929688,121.88999938964844,122.37000274658203,122.37000274658203,431300
2023-10-26,121.26000213623047,125.38999938964844,121.26000213623047,123.43000030517578,123.43000030517578,576000
2023-10-27,123.47000122070312,123.83999633789062,120.36000061035156,121.16999816894531,121.16999816894531,364000
2023-10-30,121.91999816894531,122.31999969482422,120.8499984741211,122.16999816894531,122.16999816894531,283100
2023-10-31,122.51000213623047,122.88999938964844,121.83000183105469,122.2699966430664,122.2699966430664,422900
2023-11-01,122.11000061035156,123.43000030517578,121.61000061035156,122.93000030517578,122.93000030517578,360500
2023-11-02,123.72000122070312,124.29000091552734,122.9800033569336,123.58000183105469,123.58000183105469,384300
2023-11-03,124.43000030517578,125.97000122070312,124.43000030517578,125.3499984741211,125.3499984741211,278000
2023-11-06,125.2699966430664,125.7300033569336,124.75,125.19000244140625,125.19000244140625,173500
2023-11-07,124.62000274658203,124.98999786376953,124.16999816894531,124.55000305175781,124.55000305175781,205000
2023-11-08,124.87999725341797,125.48999786376953,124.41000366210938,125.12000274658203,125.12000274658203,175800
2023-11-09,125.69000244140625,125.69000244140625,124.06999969482422,124.38999938964844,124.38999938964844,118600
2023-11-10,124.23999786376953,125.79000091552734,123.88999938964844,125.72000122070312,125.72000122070312,195600
2023-11-13,125.38999938964844,125.4800033569336,124.37000274658203,124.52999877929688,124.52999877929688,183100
2023-11-14,125.94999694824219,127.86000061035156,125.30999755859375,127.8499984741211,127.8499984741211,267400
2023-11-15,127.81999969482422,128.8000030517578,127.3499984741211,127.70999908447266,127.70999908447266,388600
2023-11-16,127.6500015258789,128.6199951171875,126.83999633789062,127.55000305175781,127.55000305175781,217000
2023-11-17,128.55999755859375,129.0800018310547,127.61000061035156,127.93000030517578,127.93000030517578,162700
2023-11-20,127.44999694824219,127.6500015258789,126.43000030517578,127.31999969482422,127.31999969482422,213900
2023-11-21,127.45999908447266,128.3000030517578,127.19999694824219,127.91000366210938,127.91000366210938,160600
2023-11-22,128.4499969482422,129.1999969482422,127.36000061035156,128.57000732421875,128.57000732421875,174800
2023-11-24,128.97000122070312,128.97000122070312,128.10000610351562,128.52999877929688,128.52999877929688,65900
2023-11-27,127.81999969482422,128.3000030517578,126.8499984741211,127.0,127.0,367500
2023-11-28,127.0,127.01000213623047,125.48999786376953,125.61000061035156,125.61000061035156,218000
2023-11-29,125.63999938964844,126.4000015258789,124.91999816894531,125.37000274658203,125.37000274658203,331800
2023-11-30,125.44999694824219,127.12999725341797,124.80999755859375,126.88999938964844,126.88999938964844,301000
2023-12-01,126.41999816894531,128.5399932861328,126.41999816894531,128.10000610351562,128.10000610351562,218300
2023-12-04,127.44999694824219,128.8800048828125,126.88999938964844,128.4199981689453,128.4199981689453,192000
2023-12-05,128.25,128.69000244140625,125.87999725341797,125.98999786376953,125.98999786376953,178000
2023-12-06,126.38999938964844,127.30000305175781,125.87999725341797,126.37000274658203,126.37000274658203,179500
2023-12-07,126.23999786376953,127.11000061035156,125.98999786376953,126.48999786376953,126.48999786376953,254000
2023-12-08,126.36000061035156,127.5,125.62000274658203,127.31999969482422,127.31999969482422,265800
2023-12-11,127.26000213623047,127.68000030517578,126.33999633789062,127.56999969482422,127.56999969482422,338000
2023-12-12,127.6500015258789,128.10000610351562,126.68000030517578,127.4800033569336,127.4800033569336,210300
2023-12-13,127.18000030517578,128.99000549316406,127.18000030517578,128.58999633789062,128.58999633789062,425000
2023-12-14,129.0800018310547,130.00999450683594,126.87999725341797,127.4000015258789,127.4000015258789,412900
2023-12-15,127.16000366210938,128.5800018310547,125.97000122070312,125.9800033569336,125.9800033569336,713000
2023-12-18,126.70999908447266,127.20999908447266,125.87999725341797,127.05000305175781,127.05000305175781,240500
2023-12-19,127.70999908447266,128.1300048828125,126.02999877929688,126.2300033569336,126.2300033569336,659100
2023-12-20,126.0199966430664,126.94000244140625,125.45999908447266,125.56999969482422,125.56999969482422,346400
2023-12-21,126.23999786376953,126.23999786376953,124.8499984741211,125.91000366210938,125.91000366210938,421900
2023-12-22,126.4000015258789,127.04000091552734,126.12000274658203,126.2699966430664,126.2699966430664,312200
2023-12-26,126.13999938964844,126.87000274658203,125.58999633789062,125.83000183105469,125.83000183105469,274700
2023-12-27,126.12000274658203,126.47000122070312,125.02999877929688,125.27999877929688,125.27999877929688,283100
2023-12-28,124.9800033569336,125.80000305175781,124.4000015258789,125.19999694824219,125.19999694824219,343600
2023-12-29,125.19000244140625,125.36000061035156,123.55999755859375,123.62000274658203,123.62000274658203,313500
2024-01-02,122.61000061035156,124.0999984741211,122.29000091552734,122.87999725341797,122.87999725341797,313100
2024-01-03,125.1500015258789,127.26000213623047,123.1500015258789,125.36000061035156,125.36000061035156,531700
2024-01-04,125.18000030517578,125.91999816894531,124.12999725341797,124.22000122070312,124.22000122070312,353300
2024-01-05,123.77999877929688,124.37000274658203,122.98999786376953,124.19999694824219,124.19999694824219,423000
2024-01-08,124.06999969482422,125.16000366210938,122.37000274658203,124.3499984741211,124.3499984741211,352400
2024-01-09,123.70999908447266,124.63999938964844,122.97000122070312,124.62999725341797,124.62999725341797,250300
2024-01-10,124.45999908447266,125.41999816894531,124.2300033569336,125.19000244140625,125.19000244140625,279600
2024-01-11,125.37999725341797,126.97000122070312,124.94000244140625,126.83999633789062,126.83999633789062,323100
2024-01-12,127.88999938964844,127.97000122070312,125.91999816894531,126.43000030517578,126.43000030517578,231700
2024-01-16,125.87999725341797,126.81999969482422,125.51000213623047,126.80999755859375,126.80999755859375,257500
2024-01-17,125.94000244140625,127.2699966430664,125.88999938964844,126.69000244140625,126.69000244140625,336900
2024-01-18,127.31999969482422,130.00999450683594,126.30999755859375,129.13999938964844,129.13999938964844,444200
2024-01-19,129.7100067138672,131.4600067138672,128.5399932861328,130.8000030517578,130.8000030517578,418000
2024-01-22,130.89999389648438,131.80999755859375,130.55999755859375,131.19000244140625,131.19000244140625,266200
2024-01-23,131.8000030517578,131.85000610351562,130.3300018310547,131.8300018310547,131.8300018310547,217800
2024-01-24,132.1199951171875,132.2899932861328,130.5399932861328,130.77999877929688,130.77999877929688,294400
2024-01-25,132.02999877929688,132.3800048828125,130.3800048828125,131.25,131.25,332300
2024-01-26,131.67999267578125,132.58999633789062,131.39999389648438,131.6999969482422,131.6999969482422,219900
2024-01-29,131.0500030517578,132.58999633789062,130.49000549316406,132.25,132.25,187800
2024-01-30,132.02999877929688,133.08999633789062,131.6300048828125,132.25,132.25,228400
2024-01-31,132.3699951171875,132.77000427246094,129.16000366210938,129.8800048828125,129.8800048828125,537500
2024-02-01,130.4600067138672,131.11000061035156,129.61000061035156,130.5,130.5,298800
2024-02-02,129.9600067138672,130.7100067138672,128.69000244140625,130.10000610351562,130.10000610351562,344800
2024-02-05,129.1300048828125,131.4499969482422,128.0500030517578,130.64999389648438,130.64999389648438,319500
2024-02-06,130.47999572753906,131.39999389648438,129.3000030517578,131.1300048828125,131.1300048828125,369700
2024-02-07,131.41000366210938,132.4199981689453,129.3699951171875,131.8000030517578,131.8000030517578,393000
2024-02-08,131.63999938964844,134.83999633789062,131.5399932861328,132.1199951171875,132.1199951171875,620700
2024-02-09,132.11000061035156,139.2100067138672,131.50999450683594,138.9600067138672,138.9600067138672,650900
2024-02-12,139.16000366210938,140.47000122070312,137.50999450683594,137.61000061035156,137.61000061035156,491300
2024-02-13,136.69000244140625,137.3300018310547,134.97999572753906,135.92999267578125,135.92999267578125,275900
2024-02-14,136.25999450683594,137.4600067138672,135.1699981689453,137.1699981689453,137.1699981689453,335000
2024-02-15,137.1699981689453,137.80999755859375,134.57000732421875,135.0399932861328,135.0399932861328,471400
2024-02-16,135.3699951171875,138.0,135.0399932861328,137.5,137.5,453900
2024-02-20,137.13999938964844,140.13999938964844,136.9499969482422,139.69000244140625,139.69000244140625,373000
2024-02-21,139.0800018310547,140.11000061035156,138.99000549316406,140.0,140.0,276300
2024-02-22,140.47000122070312,142.4199981689453,140.07000732421875,141.47000122070312,141.47000122070312,295700
2024-02-23,141.97000122070312,142.0500030517578,140.60000610351562,141.36000061035156,141.36000061035156,190300
2024-02-26,141.5,142.05999755859375,140.8000030517578,141.9199981689453,141.9199981689453,199200
2024-02-27,141.9199981689453,142.17999267578125,139.8000030517578,140.30999755859375,140.30999755859375,244600
2024-02-28,139.64999389648438,141.24000549316406,139.3300018310547,140.41000366210938,140.41000366210938,189600
2024-02-29,140.6300048828125,141.6300048828125,139.8300018310547,140.4600067138672,140.4600067138672,250600
2024-03-01,139.8800048828125,140.7899932861328,139.55999755859375,140.2899932861328,140.2899932861328,151400
2024-03-04,140.69000244140625,142.1199951171875,140.55999755859375,141.9600067138672,141.9600067138672,260300
2024-03-05,142.27000427246094,143.2100067138672,141.74000549316406,142.52000427246094,142.52000427246094,190200
2024-03-06,142.92999267578125,143.63999938964844,142.47999572753906,143.07000732421875,143.07000732421875,184000
2024-03-07,144.5,145.13999938964844,143.83999633789062,144.64999389648438,144.64999389648438,250100
2024-03-08,144.7100067138672,145.07000732421875,142.97000122070312,143.08999633789062,143.08999633789062,185200
2024-03-11,142.7899932861328,143.3800048828125,141.97999572753906,142.74000549316406,142.74000549316406,226700
2024-03-12,142.8000030517578,142.85000610351562,141.47999572753906,142.41000366210938,142.41000366210938,242200
2024-03-13,143.0,143.0,140.92999267578125,141.16000366210938,141.16000366210938,336800
2024-03-14,141.36000061035156,141.6199951171875,140.36000061035156,140.92999267578125,140.92999267578125,235200
2024-03-15,140.0399932861328,142.41000366210938,139.74000549316406,141.0,141.0,599500
2024-03-18,140.92999267578125,141.3000030517578,138.92999267578125,139.25999450683594,139.25999450683594,299700
2024-03-19,138.8800048828125,140.32000732421875,138.8800048828125,139.50999450683594,139.50999450683594,253000
2024-03-20,139.6300048828125,140.07000732421875,139.13999938964844,139.97000122070312,139.97000122070312,220000
2024-03-21,140.30999755859375,141.60000610351562,139.3000030517578,141.13999938964844,141.13999938964844,255800
